##TITLE=Ibuprofen_1H_20231008_001
##JCAMP-DX=5.01 $$ Nanalysis NMReady v2.2.6
##DATA TYPE=NMR FID
##DATA CLASS=NTUPLES
##ORIGIN=Nanalysis Corp.
##OWNER=Nanalysis
##LONG DATE=2023/10/08 11:01:32-0400
##SPECTROMETER/DATA SYSTEM=NMReady 60/nanalysis-X812
##INSTRUMENTAL PARAMETERS=^1H
##TEMPERATURE=33.000009
##PRESSURE=1.000000  $$ Bar
##RESOLUTION=0.00001999999949
##SAMPLE DESCRIPTION=None
##.OBSERVE FREQUENCY=60.12396860678224
##.OBSERVE NUCLEUS=^1H
##.SOLVENT NAME=Chloroform-d
##.ACQUISITION MODE=SIMULTANEOUS
##.SHIFT REFERENCE=INTERNAL, Chloroform-d, 1024, 6.00000000000000
##.SOLVENT REFERENCE=6.00000000000000
##.PULSE SEQUENCE=1D
##.DELAY=(0.000000,0.000000)
##.FIELD=1.412173  $$ Tesla
##.OBSERVE 90=16.006685
##.ACQUISITION TIME=2.37451994001458
##.ZERO FILL=0
##.AVERAGES=64
##.DIGITISER RES=16
##.SPINNING RATE=0.000000
$$##.PHASE 0=-28.39385986328125
$$##.PHASE 1=25.00000000000000
$$ NMReady specific parameters
##$SCANS=64
##$SCAN DELAY=1.006088
##$TOTAL DURATION=271.042826
##$X_PULSE=8.003342
##$RECVR_GAIN=29
##$SWEEP WIDTH=14.000000
##$RELAXATIONDELAY=1.853276
##$ZEROING=7.000000
##$APODIZATION=0.100000
##$PHASECORRECTION=-28.393860,25.000000
##$PIVOT=-0.335754
##$DT=0.000020
##$LOCKOFFSET=7.260000
##$SPECTRALCENTER=6.000000
##$DECIMATION=58
##$LOWESTF2=-70.290682
##$T2NUCLEUS=1H
##$PULSE_AMPLITUDE=14.019355
##$PLOTTYPE=1D
##$INTEGRALS IS MANUAL=True
##$INTEGRALS REFERENCE ENERGY=731.813444510584
##$INTEGRALS START=9.915344, 6.615603, 3.352024, 2.212935, 1.607230, 
1.326978, 0.585666
##$INTEGRALS END=11.054432, 7.610045, 4.129497, 2.728237, 2.194855, 1.589149, 
1.119049
##$EXPERIMENT_SETTING_Apodization=0.10
##$EXPERIMENT_SETTING_Decoupling Mode=Off
##$EXPERIMENT_SETTING_Digital Resolution=0.05 Hz
##$EXPERIMENT_SETTING_Dummy Scans=0
##$EXPERIMENT_SETTING_Dwell Time=0.34 us
##$EXPERIMENT_SETTING_NPoints (Complex)=2048
##$EXPERIMENT_SETTING_Nucleus=1H
##$EXPERIMENT_SETTING_Pulse Angle=45, °
##$EXPERIMENT_SETTING_Pulse Width=8.00 us
##$EXPERIMENT_SETTING_Receiver Gain=29.53 dB
##$EXPERIMENT_SETTING_Receiver Gain (dB)=29.53, Auto
##$EXPERIMENT_SETTING_Scan Delay=1.0 s
##$EXPERIMENT_SETTING_Scans=64
##$EXPERIMENT_SETTING_Solvent=Chloroform-d
##$EXPERIMENT_SETTING_Spectral Center=6.00 ppm
##$EXPERIMENT_SETTING_Spectral Width=14 ppm
##$EXPERIMENT_SETTING_TX Frequency=60.123969 MHz
##$EXPERIMENT_SETTING_Time Per Scan=4.2 sec
##$EXPERIMENT_SETTING_Zero Filling=7
##$DecouplingSettingsType=2
##$DecouplingSettingsTypeName=BBWaltz16
##$DecouplingSettingsMode=0
##$DecouplingSettingsModeName=Off
##$RDC_ENABLED=1
##$RDC_TYPE=CONT
##$RDC_DATA=(0.000000,0.007800,0.017160,0.028392,0.041870,0.058044,0.077453,
0.100744,0.128693,0.162231,0.202478,0.250773,0.308728,0.378273,0.461728,
0.561874,0.682049,0.826258,0.999310,1.206972,1.456166,1.755200,2.114040,
2.544647,3.061377),(0.326765,-3.147331,1698.447519,-101626.712851,0.317780,
5.370112,-42.455267,502.593366,0.306946,6.810309,-99.937170,1105.473042,
0.330850,4.211453,-5.828213,-29.625140,0.331293,3.996450,3.683515,-140.192557,
0.270646,7.240959,-54.108570,202.574634,0.330194,5.075833,-27.979569,
97.978033,0.555140,-1.674479,39.539036,-127.122556,0.343229,3.891307,
-8.572727,10.090258,0.301972,4.347097,-9.489023,8.083017,0.630141,-0.230063,
11.708447,-24.495372,1.364619,-7.316175,33.184667,-44.028810,0.258221,
4.621822,-9.327835,6.022448,0.963607,-0.772809,4.405633,-5.614410,-0.390908,
8.238142,-15.565357,9.131839,3.378402,-10.744959,16.186990,-8.499254,0.338488,
2.901416,-4.224532,1.673589,-2.914611,13.172711,-14.791631,5.184640,4.066872,
-7.240405,5.089407,-1.264766,2.276278,-3.126180,1.959409,-0.477318,-2.784726,
7.032473,-4.832813,1.035363,3.951230,-4.932126,2.241056,-0.356896,4.061605,
-4.499291,1.757479,-0.236682,2.238190,-1.914990,0.571108,-0.058903),(
249060.310496,-683674.215556,844640.146765,-619992.623404,300473.312404,
-100969.086477,24009.796019,-4041.060887,471.879744,-36.417304,1.672134,
-0.034614),()
$$ End of NMReady specific parameters
$$ Bruker specific parameters
$$ --------------------------
##$DATE=1696777292
##$SI= 16384
##$TDeff= 2048
##$SFO1= 60.12396860678224
##$O1= 360.74381164069348
##$SF= 60.12360786297060
##$BF1= 60.12360786297060
##$AQ= 2.37451994001458
##$SWH= 862.06898729493571
##$SW= 14.33819169411399
##$SR= 0.00000000000000
##$OFFSET= 13.16917486215450
##$FIDRES= 0.42093212270261
##$O1P= 6.00000000000000
##$TD= 4096
##$DW= 579.99998534796759
##$SPECTYP= PROTON
##$NS= 64
##$DS= 0
##$DR= 16
##$DE=1.006088
##$RG=29
##$P1=8.003342
##$P= (0..2)
0.0 8.003342
##$D= (1..4) $$ Some D just for testing
1 2 3
##$PHC0= 40.89385986328125
##$PHC1= -25.00000000000000
##$PH_mod= 1
##$WDW= 1
##$LB= 0.10000000149012
$$ End of Bruker specific parameters
$$ ---------------------------------
##NPOINTS=2048
##DELTAX=0.0011600000
##NTUPLES=NMR FID
##VAR_NAME=TIME,FID/REAL,FID/IMAG,PAGE NUMBER
##SYMBOL=X,R,I,N
##VAR_TYPE=INDEPENDENT,DEPENDENT,DEPENDENT,PAGE
##VAR_FORM=AFFN,AFFN,AFFN,AFFN
##VAR_DIM=2048,2048,2048,2
##UNITS=SECONDS,ARBITRARY UNITS,ARBITRARY UNITS,
##FIRST=0.000000,1343.438596,713.999472,1
##LAST=2.374520,-0.217617,0.083985,2
##MIN=0.000000,-823.756401,-705.496868,1
##MAX=2.374520,1343.438596,713.999472,2
##FACTOR=0.00115999997069593519,0.00000062558753478643,0.00000062558753478643,1
##PAGE=N=1
##DATA TABLE= (X++(R..R)), XYDATA
      0.00000000     2147483000      205427284    -1316772402      785176970
      4.00000000     -641383792    -1171712353      420558144     -615905432
      8.00000000     -166192862      863436786     -265690545      315047587
     12.00000000      884084632      236129971      234118779     -522139341
     16.00000000     -366530628      121521546    -1056998872     -243678113
     20.00000000      617773131     -528323345      368466720      679438583
     24.00000000     -324032551      915675393      397716575    -1013240630
     28.00000000      373005617      -38469519    -1111588687      123322762
     32.00000000       35625558     -252217241      435221541       36270413
     36.00000000      275847241      602661311     -157073917       39882048
     40.00000000       13402269     -459547375      -53016232     -368611027
     44.00000000     -358404263      437005101     -107240399      -79426564
     48.00000000      704036312       84717480      -41066706      346892790
     52.00000000     -254246781     -226952034      -17978935     -455188799
     56.00000000     -152579358      134419689     -130413637      146371419
     60.00000000      371830845      142280130      145275926      159896977
     64.00000000      -54387543     -163848297     -186563037     -253441321
     68.00000000     -187859485      -58747726      -67235549      108265676
     72.00000000      321941232      162386232      124754562      236676569
     76.00000000       25736182     -180067281     -198552630     -157909712
     80.00000000     -163936227     -255975023      -33381503      155406587
     84.00000000       71054281      321150339      209983146      -47456272
     88.00000000      351523404     -100211338     -560316677      251342803
     92.00000000      -89207934     -650057298      243185148       69479231
     96.00000000     -211589399      555178852       94495664      -81180609
    100.00000000      504826650     -230241680     -383797569      221192581
    104.00000000     -148807147     -239910088     -116581869      -95894429
    108.00000000      282673596      -27204741       18165034      555902340
    112.00000000     -127646833     -158156256      221713485     -428226992
    116.00000000       62954381      283173024     -681480325       92001378
    120.00000000      439507262     -477373119      244687904      450324480
    124.00000000     -244054329      178141527      -85673173     -303222603
    128.00000000      310138367     -140756586     -255001287      158434745
    132.00000000     -137072628       95376631       70633937     -152495007
    136.00000000      510207408      -40248189     -523832663      456067965
    140.00000000      -48699465     -450205655      398656640     -181938793
    144.00000000     -272934820      460721810     -236232068     -110774387
    148.00000000      531134403     -191488819     -157804152      203735231
    152.00000000     -145815857       11486907      -69582757     -149022206
    156.00000000      213135509     -126078290      -81132144      287146311
    160.00000000     -114558378       64974775      187498885     -311652644
    164.00000000      123483387      148166695     -421499903      122962787
    168.00000000      159950160     -284478400      159060397      101343109
    172.00000000     -110143136      203167935      -50763986      -92052050
    176.00000000      163114831     -154127414      -82155443      100526976
    180.00000000     -146509753       46597251       80264577     -124953258
    184.00000000      153120980       67441065     -157824354      124862386
    188.00000000       39319272     -164644797       49833624       26142459
    192.00000000      -83164920       22099260       17843519        8906643
    196.00000000       26291530      -14921135        7277090        1353488
    200.00000000       -6600860       15472292      -37369536       10016582
    204.00000000       70364942      -63355285      -47585436      133194960
    208.00000000       -6690431     -150320401       60999967       41729626
    212.00000000     -133520450       63695919       83524947      -72552861
    216.00000000       85974410       21185356     -130839286      130638943
    220.00000000       62469939     -190964659        3929459       36694817
    224.00000000      -85583537       -1654026       39992762      111399246
    228.00000000       27698399     -111021393       86828833       42600193
